pole_thickness[mm]	Beff[T]
2.00	1.1732
2.10	1.1894
2.20	1.2052
2.30	1.2205
2.40	1.2354
2.50	1.2499
2.60	1.2640
2.70	1.2776
2.80	1.2901
2.90	1.2988
3.00	1.3003
3.10	1.2964
3.20	1.2910
3.30	1.2852
3.40	1.2790
3.50	1.2724
3.60	1.2653
3.70	1.2576
3.80	1.2493
3.90	1.2397
4.00	1.2282
