gap[mm]	Beff[T]	Bpeak[T]
3.0	1.6077	1.6060
4.0	1.3323	1.3316
5.0	1.0786	1.0784
6.0	0.8820	0.8818
7.0	0.7275	0.7275
8.0	0.6045	0.6045
9.0	0.5049	0.5049
10.0	0.4233	0.4233
11.0	0.3560	0.3560
12.0	0.2999	0.2999
13.0	0.2532	0.2532
14.0	0.2140	0.2140
15.0	0.1811	0.1811
