pole_thickness[mm]	Beff[T]
2.00	1.1478
2.10	1.1639
2.20	1.1794
2.30	1.1945
2.40	1.2088
2.50	1.2219
2.60	1.2339
2.70	1.2433
2.80	1.2486
2.90	1.2503
3.00	1.2500
3.10	1.2489
3.20	1.2473
3.30	1.2449
3.40	1.2417
3.50	1.2373
3.60	1.2318
3.70	1.2250
3.80	1.2165
3.90	1.2063
4.00	1.1952
